frequency,V(onoise),V(r1)
1.000000000000000e-002,2.689353e-006,8.142654e-007
1.023292992280754e-002,2.661480e-006,8.142654e-007
1.047128548050899e-002,2.633957e-006,8.142654e-007
1.071519305237606e-002,2.606780e-006,8.142654e-007
1.096478196143185e-002,2.579945e-006,8.142654e-007
1.122018454301963e-002,2.553448e-006,8.142654e-007
1.148153621496883e-002,2.527286e-006,8.142654e-007
1.174897554939529e-002,2.501455e-006,8.142654e-007
1.202264434617413e-002,2.475951e-006,8.142654e-007
1.230268770812381e-002,2.450772e-006,8.142654e-007
1.258925411794167e-002,2.425914e-006,8.142654e-007
1.288249551693134e-002,2.401373e-006,8.142654e-007
1.318256738556407e-002,2.377145e-006,8.142654e-007
1.348962882591653e-002,2.353228e-006,8.142654e-007
1.380384264602884e-002,2.329619e-006,8.142654e-007
1.412537544622754e-002,2.306313e-006,8.142654e-007
1.445439770745927e-002,2.283308e-006,8.142654e-007
1.479108388168207e-002,2.260600e-006,8.142654e-007
1.513561248436207e-002,2.238187e-006,8.142654e-007
1.548816618912481e-002,2.216065e-006,8.142654e-007
1.584893192461113e-002,2.194231e-006,8.142654e-007
1.621810097358929e-002,2.172683e-006,8.142654e-007
1.659586907437560e-002,2.151416e-006,8.142654e-007
1.698243652461744e-002,2.130428e-006,8.142654e-007
1.737800828749375e-002,2.109716e-006,8.142654e-007
1.778279410038922e-002,2.089277e-006,8.142654e-007
1.819700858609983e-002,2.069109e-006,8.142654e-007
1.862087136662867e-002,2.049207e-006,8.142654e-007
1.905460717963246e-002,2.029571e-006,8.142654e-007
1.949844599758045e-002,2.010196e-006,8.142654e-007
1.995262314968879e-002,1.991079e-006,8.142654e-007
2.041737944669528e-002,1.972219e-006,8.142654e-007
2.089296130854039e-002,1.953613e-006,8.142654e-007
2.137962089502231e-002,1.935257e-006,8.142654e-007
2.187761623949552e-002,1.917149e-006,8.142654e-007
2.238721138568339e-002,1.899287e-006,8.142654e-007
2.290867652767772e-002,1.881667e-006,8.142654e-007
2.344228815319921e-002,1.864287e-006,8.142654e-007
2.398832919019489e-002,1.847146e-006,8.142654e-007
2.454708915685028e-002,1.830239e-006,8.142654e-007
2.511886431509578e-002,1.813565e-006,8.142654e-007
2.570395782768862e-002,1.797120e-006,8.142654e-007
2.630267991895379e-002,1.780904e-006,8.142654e-007
2.691534803926913e-002,1.764913e-006,8.142654e-007
2.754228703338164e-002,1.749144e-006,8.142654e-007
2.818382931264451e-002,1.733596e-006,8.142654e-007
2.884031503126603e-002,1.718266e-006,8.142654e-007
2.951209226666382e-002,1.703151e-006,8.142654e-007
3.019951720402013e-002,1.688250e-006,8.142654e-007
3.090295432513587e-002,1.673560e-006,8.142654e-007
3.162277660168375e-002,1.659079e-006,8.142654e-007
3.235936569296278e-002,1.644804e-006,8.142654e-007
3.311311214825906e-002,1.630733e-006,8.142654e-007
3.388441561392020e-002,1.616864e-006,8.142654e-007
3.467368504525311e-002,1.603195e-006,8.142654e-007
3.548133892335749e-002,1.589724e-006,8.142654e-007
3.630780547701008e-002,1.576448e-006,8.142654e-007
3.715352290971719e-002,1.563366e-006,8.142654e-007
3.801893963205606e-002,1.550474e-006,8.142654e-007
3.890451449942799e-002,1.537772e-006,8.142654e-007
3.981071705534966e-002,1.525256e-006,8.142654e-007
4.073802778041120e-002,1.512925e-006,8.142654e-007
4.168693834703347e-002,1.500778e-006,8.142654e-007
4.265795188015920e-002,1.488811e-006,8.142654e-007
4.365158322401652e-002,1.477022e-006,8.142654e-007
4.466835921509623e-002,1.465411e-006,8.142654e-007
4.570881896148742e-002,1.453974e-006,8.142654e-007
4.677351412871973e-002,1.442710e-006,8.142654e-007
4.786300923226374e-002,1.431616e-006,8.142654e-007
4.897788193684452e-002,1.420692e-006,8.142654e-007
5.011872336272712e-002,1.409934e-006,8.142654e-007
5.128613839913638e-002,1.399341e-006,8.142654e-007
5.248074602497715e-002,1.388912e-006,8.142654e-007
5.370317963702516e-002,1.378643e-006,8.142654e-007
5.495408738576234e-002,1.368534e-006,8.142654e-007
5.623413251903479e-002,1.358583e-006,8.142654e-007
5.754399373371557e-002,1.348787e-006,8.142654e-007
5.888436553555877e-002,1.339144e-006,8.142654e-007
6.025595860743564e-002,1.329654e-006,8.142654e-007
6.165950018614807e-002,1.320314e-006,8.142654e-007
6.309573444801918e-002,1.311122e-006,8.142654e-007
6.456542290346540e-002,1.302076e-006,8.142654e-007
6.606934480075945e-002,1.293176e-006,8.142654e-007
6.760829753919802e-002,1.284418e-006,8.142654e-007
6.918309709189348e-002,1.275802e-006,8.142654e-007
7.079457843841361e-002,1.267325e-006,8.142654e-007
7.244359600749882e-002,1.258986e-006,8.142654e-007
7.413102413009155e-002,1.250783e-006,8.142654e-007
7.585775750291818e-002,1.242715e-006,8.142654e-007
7.762471166286897e-002,1.234779e-006,8.142654e-007
7.943282347242793e-002,1.226974e-006,8.142654e-007
8.128305161640970e-002,1.219299e-006,8.142654e-007
8.317637711026686e-002,1.211752e-006,8.142654e-007
8.511380382023739e-002,1.204330e-006,8.142654e-007
8.709635899560780e-002,1.197033e-006,8.142654e-007
8.912509381337429e-002,1.189859e-006,8.142654e-007
9.120108393559070e-002,1.182806e-006,8.142654e-007
9.332543007969883e-002,1.175873e-006,8.142654e-007
9.549925860214331e-002,1.169058e-006,8.142654e-007
9.772372209558078e-002,1.162359e-006,8.142654e-007
9.999999999999970e-002,1.155776e-006,8.142654e-007
1.023292992280751e-001,1.149306e-006,8.142654e-007
1.047128548050896e-001,1.142948e-006,8.142654e-007
1.071519305237603e-001,1.136700e-006,8.142654e-007
1.096478196143182e-001,1.130561e-006,8.142654e-007
1.122018454301960e-001,1.124529e-006,8.142654e-007
1.148153621496879e-001,1.118603e-006,8.142654e-007
1.174897554939526e-001,1.112782e-006,8.142654e-007
1.202264434617409e-001,1.107063e-006,8.142654e-007
1.230268770812378e-001,1.101447e-006,8.142654e-007
1.258925411794163e-001,1.095930e-006,8.142654e-007
1.288249551693130e-001,1.090511e-006,8.142654e-007
1.318256738556403e-001,1.085190e-006,8.142654e-007
1.348962882591649e-001,1.079965e-006,8.142654e-007
1.380384264602880e-001,1.074834e-006,8.142654e-007
1.412537544622749e-001,1.069796e-006,8.142654e-007
1.445439770745922e-001,1.064850e-006,8.142654e-007
1.479108388168202e-001,1.059994e-006,8.142654e-007
1.513561248436203e-001,1.055227e-006,8.142654e-007
1.548816618912476e-001,1.050548e-006,8.142654e-007
1.584893192461108e-001,1.045955e-006,8.142654e-007
1.621810097358924e-001,1.041447e-006,8.142654e-007
1.659586907437555e-001,1.037022e-006,8.142654e-007
1.698243652461738e-001,1.032680e-006,8.142654e-007
1.737800828749369e-001,1.028419e-006,8.142654e-007
1.778279410038916e-001,1.024238e-006,8.142654e-007
1.819700858609977e-001,1.020136e-006,8.142654e-007
1.862087136662861e-001,1.016111e-006,8.142654e-007
1.905460717963240e-001,1.012162e-006,8.142654e-007
1.949844599758038e-001,1.008288e-006,8.142654e-007
1.995262314968872e-001,1.004488e-006,8.142654e-007
2.041737944669521e-001,1.000760e-006,8.142654e-007
2.089296130854031e-001,9.971039e-007,8.142654e-007
2.137962089502223e-001,9.935179e-007,8.142654e-007
2.187761623949543e-001,9.900010e-007,8.142654e-007
2.238721138568330e-001,9.865521e-007,8.142654e-007
2.290867652767764e-001,9.831699e-007,8.142654e-007
2.344228815319912e-001,9.798534e-007,8.142654e-007
2.398832919019480e-001,9.766017e-007,8.142654e-007
2.454708915685020e-001,9.734133e-007,8.142654e-007
2.511886431509570e-001,9.702874e-007,8.142654e-007
2.570395782768853e-001,9.672229e-007,8.142654e-007
2.630267991895371e-001,9.642189e-007,8.142654e-007
2.691534803926904e-001,9.612741e-007,8.142654e-007
2.754228703338155e-001,9.583875e-007,8.142654e-007
2.818382931264442e-001,9.555582e-007,8.142654e-007
2.884031503126593e-001,9.527853e-007,8.142654e-007
2.951209226666373e-001,9.500677e-007,8.142654e-007
3.019951720402003e-001,9.474043e-007,8.142654e-007
3.090295432513577e-001,9.447944e-007,8.142654e-007
3.162277660168365e-001,9.422369e-007,8.142654e-007
3.235936569296268e-001,9.397309e-007,8.142654e-007
3.311311214825896e-001,9.372754e-007,8.142654e-007
3.388441561392009e-001,9.348695e-007,8.142654e-007
3.467368504525300e-001,9.325125e-007,8.142654e-007
3.548133892335738e-001,9.302034e-007,8.142654e-007
3.630780547700996e-001,9.279412e-007,8.142654e-007
3.715352290971707e-001,9.257253e-007,8.142654e-007
3.801893963205594e-001,9.235546e-007,8.142654e-007
3.890451449942787e-001,9.214284e-007,8.142654e-007
3.981071705534953e-001,9.193458e-007,8.142654e-007
4.073802778041107e-001,9.173061e-007,8.142654e-007
4.168693834703334e-001,9.153084e-007,8.142654e-007
4.265795188015906e-001,9.133519e-007,8.142654e-007
4.365158322401638e-001,9.114360e-007,8.142654e-007
4.466835921509609e-001,9.095597e-007,8.142654e-007
4.570881896148728e-001,9.077224e-007,8.142654e-007
4.677351412871959e-001,9.059233e-007,8.142654e-007
4.786300923226360e-001,9.041618e-007,8.142654e-007
4.897788193684438e-001,9.024370e-007,8.142654e-007
5.011872336272698e-001,9.007483e-007,8.142654e-007
5.128613839913623e-001,8.990949e-007,8.142654e-007
5.248074602497700e-001,8.974762e-007,8.142654e-007
5.370317963702500e-001,8.958916e-007,8.142654e-007
5.495408738576217e-001,8.943404e-007,8.142654e-007
5.623413251903462e-001,8.928218e-007,8.142654e-007
5.754399373371539e-001,8.913353e-007,8.142654e-007
5.888436553555859e-001,8.898802e-007,8.142654e-007
6.025595860743546e-001,8.884559e-007,8.142654e-007
6.165950018614789e-001,8.870619e-007,8.142654e-007
6.309573444801898e-001,8.856975e-007,8.142654e-007
6.456542290346520e-001,8.843621e-007,8.142654e-007
6.606934480075923e-001,8.830551e-007,8.142654e-007
6.760829753919780e-001,8.817761e-007,8.142654e-007
6.918309709189326e-001,8.805243e-007,8.142654e-007
7.079457843841339e-001,8.792993e-007,8.142654e-007
7.244359600749859e-001,8.781006e-007,8.142654e-007
7.413102413009133e-001,8.769275e-007,8.142654e-007
7.585775750291794e-001,8.757797e-007,8.142654e-007
7.762471166286873e-001,8.746565e-007,8.142654e-007
7.943282347242769e-001,8.735574e-007,8.142654e-007
8.128305161640945e-001,8.724821e-007,8.142654e-007
8.317637711026662e-001,8.714300e-007,8.142654e-007
8.511380382023716e-001,8.704006e-007,8.142654e-007
8.709635899560756e-001,8.693934e-007,8.142654e-007
8.912509381337403e-001,8.684080e-007,8.142654e-007
9.120108393559044e-001,8.674440e-007,8.142654e-007
9.332543007969856e-001,8.665009e-007,8.142654e-007
9.549925860214303e-001,8.655783e-007,8.142654e-007
9.772372209558049e-001,8.646757e-007,8.142654e-007
9.999999999999940e-001,8.637927e-007,8.142654e-007
1.023292992280748e+000,8.629290e-007,8.142654e-007
1.047128548050893e+000,8.620841e-007,8.142654e-007
1.071519305237600e+000,8.612576e-007,8.142654e-007
1.096478196143178e+000,8.604492e-007,8.142654e-007
1.122018454301957e+000,8.596584e-007,8.142654e-007
1.148153621496876e+000,8.588850e-007,8.142654e-007
1.174897554939522e+000,8.581284e-007,8.142654e-007
1.202264434617406e+000,8.573885e-007,8.142654e-007
1.230268770812374e+000,8.566648e-007,8.142654e-007
1.258925411794160e+000,8.559569e-007,8.142654e-007
1.288249551693126e+000,8.552646e-007,8.142654e-007
1.318256738556399e+000,8.545875e-007,8.142654e-007
1.348962882591645e+000,8.539253e-007,8.142654e-007
1.380384264602876e+000,8.532778e-007,8.142654e-007
1.412537544622746e+000,8.526444e-007,8.142654e-007
1.445439770745919e+000,8.520250e-007,8.142654e-007
1.479108388168198e+000,8.514193e-007,8.142654e-007
1.513561248436199e+000,8.508270e-007,8.142654e-007
1.548816618912472e+000,8.502477e-007,8.142654e-007
1.584893192461103e+000,8.496812e-007,8.142654e-007
1.621810097358920e+000,8.491273e-007,8.142654e-007
1.659586907437550e+000,8.485856e-007,8.142654e-007
1.698243652461734e+000,8.480559e-007,8.142654e-007
1.737800828749364e+000,8.475380e-007,8.142654e-007
1.778279410038911e+000,8.470316e-007,8.142654e-007
1.819700858609971e+000,8.465364e-007,8.142654e-007
1.862087136662855e+000,8.460521e-007,8.142654e-007
1.905460717963235e+000,8.455787e-007,8.142654e-007
1.949844599758032e+000,8.451157e-007,8.142654e-007
1.995262314968866e+000,8.446630e-007,8.142654e-007
2.041737944669515e+000,8.442204e-007,8.142654e-007
2.089296130854025e+000,8.437877e-007,8.142654e-007
2.137962089502217e+000,8.433646e-007,8.142654e-007
2.187761623949537e+000,8.429509e-007,8.142654e-007
2.238721138568323e+000,8.425465e-007,8.142654e-007
2.290867652767756e+000,8.421511e-007,8.142654e-007
2.344228815319905e+000,8.417644e-007,8.142654e-007
2.398832919019473e+000,8.413865e-007,8.142654e-007
2.454708915685012e+000,8.410169e-007,8.142654e-007
2.511886431509561e+000,8.406556e-007,8.142654e-007
2.570395782768844e+000,8.403024e-007,8.142654e-007
2.630267991895362e+000,8.399571e-007,8.142654e-007
2.691534803926895e+000,8.396195e-007,8.142654e-007
2.754228703338145e+000,8.392894e-007,8.142654e-007
2.818382931264432e+000,8.389667e-007,8.142654e-007
2.884031503126584e+000,8.386513e-007,8.142654e-007
2.951209226666363e+000,8.383429e-007,8.142654e-007
3.019951720401993e+000,8.380415e-007,8.142654e-007
3.090295432513567e+000,8.377468e-007,8.142654e-007
3.162277660168355e+000,8.374587e-007,8.142654e-007
3.235936569296257e+000,8.371771e-007,8.142654e-007
3.311311214825885e+000,8.369017e-007,8.142654e-007
3.388441561391999e+000,8.366326e-007,8.142654e-007
3.467368504525289e+000,8.363696e-007,8.142654e-007
3.548133892335727e+000,8.361123e-007,8.142654e-007
3.630780547700985e+000,8.358609e-007,8.142654e-007
3.715352290971696e+000,8.356152e-007,8.142654e-007
3.801893963205582e+000,8.353750e-007,8.142654e-007
3.890451449942775e+000,8.351402e-007,8.142654e-007
3.981071705534941e+000,8.349106e-007,8.142654e-007
4.073802778041094e+000,8.346862e-007,8.142654e-007
4.168693834703320e+000,8.344669e-007,8.142654e-007
4.265795188015892e+000,8.342525e-007,8.142654e-007
4.365158322401624e+000,8.340429e-007,8.142654e-007
4.466835921509595e+000,8.338381e-007,8.142654e-007
4.570881896148713e+000,8.336378e-007,8.142654e-007
4.677351412871944e+000,8.334421e-007,8.142654e-007
4.786300923226344e+000,8.332508e-007,8.142654e-007
4.897788193684422e+000,8.330638e-007,8.142654e-007
5.011872336272681e+000,8.328810e-007,8.142654e-007
5.128613839913606e+000,8.327024e-007,8.142654e-007
5.248074602497682e+000,8.325277e-007,8.142654e-007
5.370317963702482e+000,8.323570e-007,8.142654e-007
5.495408738576200e+000,8.321902e-007,8.142654e-007
5.623413251903443e+000,8.320271e-007,8.142654e-007
5.754399373371521e+000,8.318677e-007,8.142654e-007
5.888436553555840e+000,8.317119e-007,8.142654e-007
6.025595860743526e+000,8.315596e-007,8.142654e-007
6.165950018614769e+000,8.314108e-007,8.142654e-007
6.309573444801878e+000,8.312653e-007,8.142654e-007
6.456542290346500e+000,8.311231e-007,8.142654e-007
6.606934480075903e+000,8.309842e-007,8.142654e-007
6.760829753919760e+000,8.308483e-007,8.142654e-007
6.918309709189305e+000,8.307156e-007,8.142654e-007
7.079457843841318e+000,8.305858e-007,8.142654e-007
7.244359600749839e+000,8.304590e-007,8.142654e-007
7.413102413009112e+000,8.303350e-007,8.142654e-007
7.585775750291773e+000,8.302139e-007,8.142654e-007
7.762471166286851e+000,8.300954e-007,8.142654e-007
7.943282347242747e+000,8.299797e-007,8.142654e-007
8.128305161640922e+000,8.298666e-007,8.142654e-007
8.317637711026638e+000,8.297560e-007,8.142654e-007
8.511380382023690e+000,8.296480e-007,8.142654e-007
8.709635899560730e+000,8.295424e-007,8.142654e-007
8.912509381337378e+000,8.294392e-007,8.142654e-007
9.120108393559018e+000,8.293383e-007,8.142654e-007
9.332543007969829e+000,8.292397e-007,8.142654e-007
9.549925860214275e+000,8.291433e-007,8.142654e-007
9.772372209558020e+000,8.290491e-007,8.142654e-007
9.999999999999911e+000,8.289571e-007,8.142654e-007
1.023292992280745e+001,8.288671e-007,8.142654e-007
1.047128548050890e+001,8.287792e-007,8.142654e-007
1.071519305237597e+001,8.286933e-007,8.142654e-007
1.096478196143175e+001,8.286093e-007,8.142654e-007
1.122018454301953e+001,8.285272e-007,8.142654e-007
1.148153621496872e+001,8.284470e-007,8.142654e-007
1.174897554939519e+001,8.283686e-007,8.142654e-007
1.202264434617402e+001,8.282919e-007,8.142654e-007
1.230268770812370e+001,8.282171e-007,8.142654e-007
1.258925411794155e+001,8.281439e-007,8.142654e-007
1.288249551693122e+001,8.280724e-007,8.142654e-007
1.318256738556395e+001,8.280024e-007,8.142654e-007
1.348962882591641e+001,8.279341e-007,8.142654e-007
1.380384264602872e+001,8.278673e-007,8.142654e-007
1.412537544622741e+001,8.278021e-007,8.142654e-007
1.445439770745914e+001,8.277383e-007,8.142654e-007
1.479108388168193e+001,8.276760e-007,8.142654e-007
1.513561248436193e+001,8.276151e-007,8.142654e-007
1.548816618912466e+001,8.275555e-007,8.142654e-007
1.584893192461098e+001,8.274973e-007,8.142654e-007
1.621810097358914e+001,8.274405e-007,8.142654e-007
1.659586907437544e+001,8.273849e-007,8.142654e-007
1.698243652461728e+001,8.273306e-007,8.142654e-007
1.737800828749359e+001,8.272775e-007,8.142654e-007
1.778279410038905e+001,8.272257e-007,8.142654e-007
1.819700858609966e+001,8.271750e-007,8.142654e-007
1.862087136662849e+001,8.271254e-007,8.142654e-007
1.905460717963229e+001,8.270770e-007,8.142654e-007
1.949844599758026e+001,8.270297e-007,8.142654e-007
1.995262314968860e+001,8.269835e-007,8.142654e-007
2.041737944669509e+001,8.269383e-007,8.142654e-007
2.089296130854019e+001,8.268941e-007,8.142654e-007
2.137962089502211e+001,8.268509e-007,8.142654e-007
2.187761623949531e+001,8.268087e-007,8.142654e-007
2.238721138568317e+001,8.267675e-007,8.142654e-007
2.290867652767750e+001,8.267272e-007,8.142654e-007
2.344228815319899e+001,8.266878e-007,8.142654e-007
2.398832919019467e+001,8.266493e-007,8.142654e-007
2.454708915685006e+001,8.266118e-007,8.142654e-007
2.511886431509555e+001,8.265750e-007,8.142654e-007
2.570395782768838e+001,8.265391e-007,8.142654e-007
2.630267991895356e+001,8.265040e-007,8.142654e-007
2.691534803926889e+001,8.264697e-007,8.142654e-007
2.754228703338139e+001,8.264362e-007,8.142654e-007
2.818382931264425e+001,8.264034e-007,8.142654e-007
2.884031503126576e+001,8.263714e-007,8.142654e-007
2.951209226666355e+001,8.263401e-007,8.142654e-007
3.019951720401985e+001,8.263095e-007,8.142654e-007
3.090295432513559e+001,8.262796e-007,8.142654e-007
3.162277660168347e+001,8.262504e-007,8.142654e-007
3.235936569296249e+001,8.262219e-007,8.142654e-007
3.311311214825876e+001,8.261940e-007,8.142654e-007
3.388441561391990e+001,8.261667e-007,8.142654e-007
3.467368504525280e+001,8.261401e-007,8.142654e-007
3.548133892335717e+001,8.261140e-007,8.142654e-007
3.630780547700975e+001,8.260886e-007,8.142654e-007
3.715352290971686e+001,8.260637e-007,8.142654e-007
3.801893963205572e+001,8.260395e-007,8.142654e-007
3.890451449942765e+001,8.260157e-007,8.142654e-007
3.981071705534930e+001,8.259925e-007,8.142654e-007
4.073802778041084e+001,8.259698e-007,8.142654e-007
4.168693834703309e+001,8.259477e-007,8.142654e-007
4.265795188015881e+001,8.259260e-007,8.142654e-007
4.365158322401612e+001,8.259049e-007,8.142654e-007
4.466835921509583e+001,8.258842e-007,8.142654e-007
4.570881896148701e+001,8.258639e-007,8.142654e-007
4.677351412871931e+001,8.258442e-007,8.142654e-007
4.786300923226331e+001,8.258249e-007,8.142654e-007
4.897788193684408e+001,8.258060e-007,8.142654e-007
5.011872336272667e+001,8.257876e-007,8.142654e-007
5.128613839913592e+001,8.257696e-007,8.142654e-007
5.248074602497668e+001,8.257520e-007,8.142654e-007
5.370317963702468e+001,8.257348e-007,8.142654e-007
5.495408738576185e+001,8.257180e-007,8.142654e-007
5.623413251903428e+001,8.257015e-007,8.142654e-007
5.754399373371505e+001,8.256854e-007,8.142654e-007
5.888436553555824e+001,8.256698e-007,8.142654e-007
6.025595860743510e+001,8.256544e-007,8.142654e-007
6.165950018614752e+001,8.256395e-007,8.142654e-007
6.309573444801861e+001,8.256248e-007,8.142654e-007
6.456542290346482e+001,8.256105e-007,8.142654e-007
6.606934480075886e+001,8.255965e-007,8.142654e-007
6.760829753919741e+001,8.255828e-007,8.142654e-007
