frequency,V(onoise),V(r1)
1.000000000000000e-001,8.110442e-007,8.142654e-008
1.023292992280754e-001,8.018780e-007,8.142654e-008
1.047128548050900e-001,7.928180e-007,8.142654e-008
1.071519305237607e-001,7.838631e-007,8.142654e-008
1.096478196143185e-001,7.750122e-007,8.142654e-008
1.122018454301964e-001,7.662638e-007,8.142654e-008
1.148153621496883e-001,7.576170e-007,8.142654e-008
1.174897554939530e-001,7.490707e-007,8.142654e-008
1.202264434617413e-001,7.406236e-007,8.142654e-008
1.230268770812382e-001,7.322747e-007,8.142654e-008
1.258925411794167e-001,7.240228e-007,8.142654e-008
1.288249551693134e-001,7.158667e-007,8.142654e-008
1.318256738556407e-001,7.078057e-007,8.142654e-008
1.348962882591653e-001,6.998384e-007,8.142654e-008
1.380384264602884e-001,6.919638e-007,8.142654e-008
1.412537544622754e-001,6.841809e-007,8.142654e-008
1.445439770745927e-001,6.764887e-007,8.142654e-008
1.479108388168207e-001,6.688861e-007,8.142654e-008
1.513561248436207e-001,6.613722e-007,8.142654e-008
1.548816618912480e-001,6.539458e-007,8.142654e-008
1.584893192461112e-001,6.466062e-007,8.142654e-008
1.621810097358929e-001,6.393522e-007,8.142654e-008
1.659586907437559e-001,6.321828e-007,8.142654e-008
1.698243652461743e-001,6.250973e-007,8.142654e-008
1.737800828749374e-001,6.180946e-007,8.142654e-008
1.778279410038921e-001,6.111738e-007,8.142654e-008
1.819700858609982e-001,6.043339e-007,8.142654e-008
1.862087136662866e-001,5.975741e-007,8.142654e-008
1.905460717963245e-001,5.908935e-007,8.142654e-008
1.949844599758043e-001,5.842912e-007,8.142654e-008
1.995262314968878e-001,5.777662e-007,8.142654e-008
2.041737944669527e-001,5.713178e-007,8.142654e-008
2.089296130854037e-001,5.649451e-007,8.142654e-008
2.137962089502230e-001,5.586472e-007,8.142654e-008
2.187761623949550e-001,5.524233e-007,8.142654e-008
2.238721138568337e-001,5.462725e-007,8.142654e-008
2.290867652767770e-001,5.401942e-007,8.142654e-008
2.344228815319919e-001,5.341873e-007,8.142654e-008
2.398832919019487e-001,5.282512e-007,8.142654e-008
2.454708915685027e-001,5.223851e-007,8.142654e-008
2.511886431509577e-001,5.165881e-007,8.142654e-008
2.570395782768861e-001,5.108595e-007,8.142654e-008
2.630267991895379e-001,5.051987e-007,8.142654e-008
2.691534803926912e-001,4.996047e-007,8.142654e-008
2.754228703338163e-001,4.940768e-007,8.142654e-008
2.818382931264450e-001,4.886143e-007,8.142654e-008
2.884031503126602e-001,4.832166e-007,8.142654e-008
2.951209226666382e-001,4.778828e-007,8.142654e-008
3.019951720402012e-001,4.726122e-007,8.142654e-008
3.090295432513586e-001,4.674042e-007,8.142654e-008
3.162277660168375e-001,4.622582e-007,8.142654e-008
3.235936569296278e-001,4.571732e-007,8.142654e-008
3.311311214825907e-001,4.521488e-007,8.142654e-008
3.388441561392021e-001,4.471842e-007,8.142654e-008
3.467368504525312e-001,4.422787e-007,8.142654e-008
3.548133892335750e-001,4.374319e-007,8.142654e-008
3.630780547701009e-001,4.326428e-007,8.142654e-008
3.715352290971720e-001,4.279110e-007,8.142654e-008
3.801893963205607e-001,4.232358e-007,8.142654e-008
3.890451449942800e-001,4.186166e-007,8.142654e-008
3.981071705534967e-001,4.140527e-007,8.142654e-008
4.073802778041121e-001,4.095436e-007,8.142654e-008
4.168693834703348e-001,4.050887e-007,8.142654e-008
4.265795188015920e-001,4.006873e-007,8.142654e-008
4.365158322401653e-001,3.963389e-007,8.142654e-008
4.466835921509624e-001,3.920428e-007,8.142654e-008
4.570881896148742e-001,3.877986e-007,8.142654e-008
4.677351412871974e-001,3.836056e-007,8.142654e-008
4.786300923226375e-001,3.794633e-007,8.142654e-008
4.897788193684454e-001,3.753712e-007,8.142654e-008
5.011872336272715e-001,3.713286e-007,8.142654e-008
5.128613839913641e-001,3.673350e-007,8.142654e-008
5.248074602497718e-001,3.633900e-007,8.142654e-008
5.370317963702519e-001,3.594930e-007,8.142654e-008
5.495408738576236e-001,3.556434e-007,8.142654e-008
5.623413251903481e-001,3.518407e-007,8.142654e-008
5.754399373371559e-001,3.480845e-007,8.142654e-008
5.888436553555879e-001,3.443742e-007,8.142654e-008
6.025595860743567e-001,3.407093e-007,8.142654e-008
6.165950018614811e-001,3.370893e-007,8.142654e-008
6.309573444801921e-001,3.335138e-007,8.142654e-008
6.456542290346544e-001,3.299822e-007,8.142654e-008
6.606934480075949e-001,3.264942e-007,8.142654e-008
6.760829753919806e-001,3.230491e-007,8.142654e-008
6.918309709189353e-001,3.196466e-007,8.142654e-008
7.079457843841367e-001,3.162862e-007,8.142654e-008
7.244359600749888e-001,3.129674e-007,8.142654e-008
7.413102413009162e-001,3.096898e-007,8.142654e-008
7.585775750291823e-001,3.064529e-007,8.142654e-008
7.762471166286903e-001,3.032564e-007,8.142654e-008
7.943282347242799e-001,3.000997e-007,8.142654e-008
8.128305161640976e-001,2.969825e-007,8.142654e-008
8.317637711026693e-001,2.939042e-007,8.142654e-008
8.511380382023747e-001,2.908646e-007,8.142654e-008
8.709635899560788e-001,2.878632e-007,8.142654e-008
8.912509381337437e-001,2.848995e-007,8.142654e-008
9.120108393559078e-001,2.819732e-007,8.142654e-008
9.332543007969890e-001,2.790839e-007,8.142654e-008
9.549925860214339e-001,2.762311e-007,8.142654e-008
9.772372209558086e-001,2.734145e-007,8.142654e-008
9.999999999999978e-001,2.706337e-007,8.142654e-008
1.023292992280752e+000,2.678884e-007,8.142654e-008
1.047128548050897e+000,2.651780e-007,8.142654e-008
1.071519305237604e+000,2.625024e-007,8.142654e-008
1.096478196143182e+000,2.598610e-007,8.142654e-008
1.122018454301961e+000,2.572535e-007,8.142654e-008
1.148153621496880e+000,2.546796e-007,8.142654e-008
1.174897554939527e+000,2.521389e-007,8.142654e-008
1.202264434617410e+000,2.496311e-007,8.142654e-008
1.230268770812378e+000,2.471558e-007,8.142654e-008
1.258925411794164e+000,2.447126e-007,8.142654e-008
1.288249551693131e+000,2.423012e-007,8.142654e-008
1.318256738556404e+000,2.399213e-007,8.142654e-008
1.348962882591650e+000,2.375726e-007,8.142654e-008
1.380384264602881e+000,2.352546e-007,8.142654e-008
1.412537544622750e+000,2.329672e-007,8.142654e-008
1.445439770745923e+000,2.307099e-007,8.142654e-008
1.479108388168203e+000,2.284824e-007,8.142654e-008
1.513561248436204e+000,2.262845e-007,8.142654e-008
1.548816618912477e+000,2.241157e-007,8.142654e-008
1.584893192461109e+000,2.219759e-007,8.142654e-008
1.621810097358925e+000,2.198646e-007,8.142654e-008
1.659586907437555e+000,2.177817e-007,8.142654e-008
1.698243652461739e+000,2.157267e-007,8.142654e-008
1.737800828749370e+000,2.136994e-007,8.142654e-008
1.778279410038917e+000,2.116995e-007,8.142654e-008
1.819700858609977e+000,2.097267e-007,8.142654e-008
1.862087136662861e+000,2.077807e-007,8.142654e-008
1.905460717963241e+000,2.058613e-007,8.142654e-008
1.949844599758039e+000,2.039680e-007,8.142654e-008
1.995262314968873e+000,2.021008e-007,8.142654e-008
2.041737944669523e+000,2.002592e-007,8.142654e-008
2.089296130854033e+000,1.984430e-007,8.142654e-008
2.137962089502225e+000,1.966520e-007,8.142654e-008
2.187761623949545e+000,1.948859e-007,8.142654e-008
2.238721138568332e+000,1.931443e-007,8.142654e-008
2.290867652767766e+000,1.914271e-007,8.142654e-008
2.344228815319914e+000,1.897339e-007,8.142654e-008
2.398832919019482e+000,1.880646e-007,8.142654e-008
2.454708915685022e+000,1.864188e-007,8.142654e-008
2.511886431509572e+000,1.847963e-007,8.142654e-008
2.570395782768855e+000,1.831969e-007,8.142654e-008
2.630267991895373e+000,1.816203e-007,8.142654e-008
2.691534803926906e+000,1.800662e-007,8.142654e-008
2.754228703338157e+000,1.785344e-007,8.142654e-008
2.818382931264444e+000,1.770247e-007,8.142654e-008
2.884031503126595e+000,1.755368e-007,8.142654e-008
2.951209226666375e+000,1.740705e-007,8.142654e-008
3.019951720402005e+000,1.726255e-007,8.142654e-008
3.090295432513579e+000,1.712017e-007,8.142654e-008
3.162277660168367e+000,1.697987e-007,8.142654e-008
3.235936569296270e+000,1.684164e-007,8.142654e-008
3.311311214825898e+000,1.670545e-007,8.142654e-008
3.388441561392012e+000,1.657128e-007,8.142654e-008
3.467368504525302e+000,1.643910e-007,8.142654e-008
3.548133892335740e+000,1.630890e-007,8.142654e-008
3.630780547700999e+000,1.618065e-007,8.142654e-008
3.715352290971711e+000,1.605433e-007,8.142654e-008
3.801893963205597e+000,1.592991e-007,8.142654e-008
3.890451449942790e+000,1.580738e-007,8.142654e-008
3.981071705534956e+000,1.568672e-007,8.142654e-008
4.073802778041110e+000,1.556790e-007,8.142654e-008
4.168693834703337e+000,1.545090e-007,8.142654e-008
4.265795188015909e+000,1.533570e-007,8.142654e-008
4.365158322401642e+000,1.522229e-007,8.142654e-008
4.466835921509612e+000,1.511063e-007,8.142654e-008
4.570881896148731e+000,1.500071e-007,8.142654e-008
4.677351412871962e+000,1.489251e-007,8.142654e-008
4.786300923226363e+000,1.478600e-007,8.142654e-008
4.897788193684440e+000,1.468118e-007,8.142654e-008
5.011872336272701e+000,1.457801e-007,8.142654e-008
5.128613839913625e+000,1.447648e-007,8.142654e-008
5.248074602497702e+000,1.437657e-007,8.142654e-008
5.370317963702503e+000,1.427826e-007,8.142654e-008
5.495408738576220e+000,1.418153e-007,8.142654e-008
5.623413251903465e+000,1.408635e-007,8.142654e-008
5.754399373371542e+000,1.399272e-007,8.142654e-008
5.888436553555861e+000,1.390061e-007,8.142654e-008
6.025595860743549e+000,1.381001e-007,8.142654e-008
6.165950018614792e+000,1.372089e-007,8.142654e-008
6.309573444801902e+000,1.363323e-007,8.142654e-008
6.456542290346524e+000,1.354702e-007,8.142654e-008
6.606934480075928e+000,1.346224e-007,8.142654e-008
6.760829753919785e+000,1.337887e-007,8.142654e-008
6.918309709189331e+000,1.329690e-007,8.142654e-008
7.079457843841344e+000,1.321630e-007,8.142654e-008
7.244359600749864e+000,1.313705e-007,8.142654e-008
7.413102413009137e+000,1.305915e-007,8.142654e-008
7.585775750291798e+000,1.298256e-007,8.142654e-008
7.762471166286877e+000,1.290728e-007,8.142654e-008
7.943282347242774e+000,1.283329e-007,8.142654e-008
8.128305161640951e+000,1.276057e-007,8.142654e-008
8.317637711026666e+000,1.268910e-007,8.142654e-008
8.511380382023720e+000,1.261887e-007,8.142654e-008
8.709635899560761e+000,1.254985e-007,8.142654e-008
8.912509381337408e+000,1.248204e-007,8.142654e-008
9.120108393559049e+000,1.241541e-007,8.142654e-008
9.332543007969861e+000,1.234995e-007,8.142654e-008
9.549925860214309e+000,1.228565e-007,8.142654e-008
9.772372209558055e+000,1.222248e-007,8.142654e-008
9.999999999999947e+000,1.216043e-007,8.142654e-008
1.023292992280749e+001,1.209949e-007,8.142654e-008
1.047128548050894e+001,1.203964e-007,8.142654e-008
1.071519305237601e+001,1.198086e-007,8.142654e-008
1.096478196143179e+001,1.192314e-007,8.142654e-008
1.122018454301957e+001,1.186646e-007,8.142654e-008
1.148153621496876e+001,1.181081e-007,8.142654e-008
1.174897554939523e+001,1.175617e-007,8.142654e-008
1.202264434617406e+001,1.170253e-007,8.142654e-008
1.230268770812375e+001,1.164987e-007,8.142654e-008
1.258925411794160e+001,1.159818e-007,8.142654e-008
1.288249551693127e+001,1.154744e-007,8.142654e-008
1.318256738556400e+001,1.149764e-007,8.142654e-008
1.348962882591646e+001,1.144877e-007,8.142654e-008
1.380384264602877e+001,1.140080e-007,8.142654e-008
1.412537544622746e+001,1.135373e-007,8.142654e-008
1.445439770745919e+001,1.130755e-007,8.142654e-008
1.479108388168199e+001,1.126223e-007,8.142654e-008
1.513561248436199e+001,1.121776e-007,8.142654e-008
1.548816618912472e+001,1.117414e-007,8.142654e-008
1.584893192461104e+001,1.113135e-007,8.142654e-008
1.621810097358920e+001,1.108937e-007,8.142654e-008
1.659586907437550e+001,1.104819e-007,8.142654e-008
1.698243652461734e+001,1.100780e-007,8.142654e-008
1.737800828749365e+001,1.096818e-007,8.142654e-008
1.778279410038912e+001,1.092933e-007,8.142654e-008
1.819700858609972e+001,1.089123e-007,8.142654e-008
1.862087136662855e+001,1.085387e-007,8.142654e-008
1.905460717963235e+001,1.081723e-007,8.142654e-008
1.949844599758032e+001,1.078131e-007,8.142654e-008
1.995262314968866e+001,1.074608e-007,8.142654e-008
2.041737944669515e+001,1.071155e-007,8.142654e-008
2.089296130854025e+001,1.067770e-007,8.142654e-008
2.137962089502218e+001,1.064451e-007,8.142654e-008
2.187761623949537e+001,1.061198e-007,8.142654e-008
2.238721138568324e+001,1.058009e-007,8.142654e-008
2.290867652767757e+001,1.054884e-007,8.142654e-008
2.344228815319906e+001,1.051820e-007,8.142654e-008
2.398832919019474e+001,1.048818e-007,8.142654e-008
2.454708915685013e+001,1.045876e-007,8.142654e-008
2.511886431509563e+001,1.042992e-007,8.142654e-008
2.570395782768846e+001,1.040167e-007,8.142654e-008
2.630267991895363e+001,1.037398e-007,8.142654e-008
2.691534803926897e+001,1.034686e-007,8.142654e-008
2.754228703338147e+001,1.032028e-007,8.142654e-008
2.818382931264434e+001,1.029424e-007,8.142654e-008
2.884031503126585e+001,1.026873e-007,8.142654e-008
2.951209226666364e+001,1.024374e-007,8.142654e-008
3.019951720401994e+001,1.021926e-007,8.142654e-008
3.090295432513568e+001,1.019528e-007,8.142654e-008
3.162277660168356e+001,1.017179e-007,8.142654e-008
3.235936569296258e+001,1.014878e-007,8.142654e-008
3.311311214825886e+001,1.012625e-007,8.142654e-008
3.388441561392000e+001,1.010418e-007,8.142654e-008
3.467368504525290e+001,1.008256e-007,8.142654e-008
3.548133892335728e+001,1.006140e-007,8.142654e-008
3.630780547700986e+001,1.004067e-007,8.142654e-008
3.715352290971697e+001,1.002037e-007,8.142654e-008
3.801893963205583e+001,1.000050e-007,8.142654e-008
3.890451449942776e+001,9.981034e-008,8.142654e-008
3.981071705534941e+001,9.961979e-008,8.142654e-008
4.073802778041095e+001,9.943323e-008,8.142654e-008
4.168693834703321e+001,9.925057e-008,8.142654e-008
4.265795188015893e+001,9.907175e-008,8.142654e-008
4.365158322401625e+001,9.889668e-008,8.142654e-008
4.466835921509595e+001,9.872530e-008,8.142654e-008
4.570881896148713e+001,9.855754e-008,8.142654e-008
4.677351412871944e+001,9.839331e-008,8.142654e-008
4.786300923226344e+001,9.823255e-008,8.142654e-008
4.897788193684422e+001,9.807521e-008,8.142654e-008
5.011872336272682e+001,9.792120e-008,8.142654e-008
5.128613839913606e+001,9.777047e-008,8.142654e-008
5.248074602497682e+001,9.762293e-008,8.142654e-008
5.370317963702482e+001,9.747855e-008,8.142654e-008
5.495408738576199e+001,9.733724e-008,8.142654e-008
5.623413251903443e+001,9.719895e-008,8.142654e-008
5.754399373371521e+001,9.706361e-008,8.142654e-008
5.888436553555840e+001,9.693118e-008,8.142654e-008
6.025595860743526e+001,9.680159e-008,8.142654e-008
6.165950018614769e+001,9.667477e-008,8.142654e-008
6.309573444801878e+001,9.655069e-008,8.142654e-008
6.456542290346499e+001,9.642927e-008,8.142654e-008
6.606934480075903e+001,9.631047e-008,8.142654e-008
6.760829753919759e+001,9.619423e-008,8.142654e-008
6.918309709189305e+001,9.608051e-008,8.142654e-008
7.079457843841317e+001,9.596923e-008,8.142654e-008
7.244359600749837e+001,9.586038e-008,8.142654e-008
7.413102413009111e+001,9.575388e-008,8.142654e-008
7.585775750291771e+001,9.564968e-008,8.142654e-008
7.762471166286849e+001,9.554775e-008,8.142654e-008
7.943282347242744e+001,9.544804e-008,8.142654e-008
8.128305161640920e+001,9.535049e-008,8.142654e-008
8.317637711026636e+001,9.525507e-008,8.142654e-008
8.511380382023688e+001,9.516174e-008,8.142654e-008
8.709635899560728e+001,9.507043e-008,8.142654e-008
8.912509381337374e+001,9.498112e-008,8.142654e-008
9.120108393559013e+001,9.489376e-008,8.142654e-008
9.332543007969824e+001,9.480831e-008,8.142654e-008
9.549925860214270e+001,9.472474e-008,8.142654e-008
9.772372209558016e+001,9.464299e-008,8.142654e-008
9.999999999999906e+001,9.456304e-008,8.142654e-008
1.023292992280745e+002,9.448485e-008,8.142654e-008
1.047128548050890e+002,9.440836e-008,8.142654e-008
1.071519305237596e+002,9.433356e-008,8.142654e-008
1.096478196143175e+002,9.426041e-008,8.142654e-008
1.122018454301953e+002,9.418888e-008,8.142654e-008
1.148153621496872e+002,9.411891e-008,8.142654e-008
1.174897554939518e+002,9.405048e-008,8.142654e-008
1.202264434617402e+002,9.398357e-008,8.142654e-008
1.230268770812370e+002,9.391814e-008,8.142654e-008
1.258925411794155e+002,9.385415e-008,8.142654e-008
1.288249551693122e+002,9.379157e-008,8.142654e-008
1.318256738556394e+002,9.373039e-008,8.142654e-008
1.348962882591640e+002,9.367054e-008,8.142654e-008
1.380384264602871e+002,9.361204e-008,8.142654e-008
1.412537544622740e+002,9.355482e-008,8.142654e-008
1.445439770745913e+002,9.349888e-008,8.142654e-008
1.479108388168193e+002,9.344418e-008,8.142654e-008
1.513561248436193e+002,9.339069e-008,8.142654e-008
1.548816618912466e+002,9.333839e-008,8.142654e-008
1.584893192461097e+002,9.328726e-008,8.142654e-008
1.621810097358913e+002,9.323725e-008,8.142654e-008
1.659586907437543e+002,9.318837e-008,8.142654e-008
1.698243652461727e+002,9.314057e-008,8.142654e-008
1.737800828749357e+002,9.309384e-008,8.142654e-008
1.778279410038904e+002,9.304814e-008,8.142654e-008
1.819700858609964e+002,9.300347e-008,8.142654e-008
1.862087136662848e+002,9.295979e-008,8.142654e-008
1.905460717963227e+002,9.291710e-008,8.142654e-008
1.949844599758025e+002,9.287535e-008,8.142654e-008
1.995262314968859e+002,9.283453e-008,8.142654e-008
2.041737944669508e+002,9.279464e-008,8.142654e-008
2.089296130854017e+002,9.275563e-008,8.142654e-008
2.137962089502209e+002,9.271749e-008,8.142654e-008
2.187761623949529e+002,9.268020e-008,8.142654e-008
2.238721138568316e+002,9.264376e-008,8.142654e-008
2.290867652767749e+002,9.260813e-008,8.142654e-008
2.344228815319897e+002,9.257329e-008,8.142654e-008
2.398832919019465e+002,9.253925e-008,8.142654e-008
2.454708915685004e+002,9.250596e-008,8.142654e-008
2.511886431509553e+002,9.247341e-008,8.142654e-008
2.570395782768836e+002,9.244160e-008,8.142654e-008
2.630267991895354e+002,9.241051e-008,8.142654e-008
2.691534803926887e+002,9.238011e-008,8.142654e-008
2.754228703338137e+002,9.235040e-008,8.142654e-008
2.818382931264423e+002,9.232135e-008,8.142654e-008
2.884031503126574e+002,9.229296e-008,8.142654e-008
2.951209226666354e+002,9.226521e-008,8.142654e-008
3.019951720401983e+002,9.223808e-008,8.142654e-008
3.090295432513557e+002,9.221156e-008,8.142654e-008
3.162277660168345e+002,9.218564e-008,8.142654e-008
3.235936569296247e+002,9.216031e-008,8.142654e-008
3.311311214825875e+002,9.213554e-008,8.142654e-008
3.388441561391988e+002,9.211134e-008,8.142654e-008
3.467368504525278e+002,9.208767e-008,8.142654e-008
3.548133892335715e+002,9.206455e-008,8.142654e-008
3.630780547700973e+002,9.204194e-008,8.142654e-008
3.715352290971684e+002,9.201985e-008,8.142654e-008
3.801893963205569e+002,9.199825e-008,8.142654e-008
3.890451449942762e+002,9.197715e-008,8.142654e-008
3.981071705534927e+002,9.195652e-008,8.142654e-008
4.073802778041081e+002,9.193636e-008,8.142654e-008
4.168693834703306e+002,9.191665e-008,8.142654e-008
4.265795188015877e+002,9.189739e-008,8.142654e-008
4.365158322401609e+002,9.187856e-008,8.142654e-008
4.466835921509579e+002,9.186017e-008,8.142654e-008
4.570881896148697e+002,9.184218e-008,8.142654e-008
4.677351412871927e+002,9.182461e-008,8.142654e-008
4.786300923226327e+002,9.180744e-008,8.142654e-008
4.897788193684405e+002,9.179065e-008,8.142654e-008
5.011872336272664e+002,9.177425e-008,8.142654e-008
5.128613839913588e+002,9.175822e-008,8.142654e-008
5.248074602497665e+002,9.174255e-008,8.142654e-008
5.370317963702464e+002,9.172724e-008,8.142654e-008
5.495408738576181e+002,9.171227e-008,8.142654e-008
5.623413251903425e+002,9.169765e-008,8.142654e-008
5.754399373371501e+002,9.168336e-008,8.142654e-008
5.888436553555820e+002,9.166939e-008,8.142654e-008
6.025595860743506e+002,9.165575e-008,8.142654e-008
6.165950018614748e+002,9.164241e-008,8.142654e-008
6.309573444801856e+002,9.162938e-008,8.142654e-008
6.456542290346476e+002,9.161665e-008,8.142654e-008
6.606934480075879e+002,9.160420e-008,8.142654e-008
6.760829753919735e+002,9.159204e-008,8.142654e-008
